416.008099	-0.020178	0.03622
416.014809	-0.028711	0.074851
416.021518	-0.026596	0.114027
416.028228	-0.000917	0.151804
416.034938	0.039205	0.18414
416.041647	0.075997	0.215804
416.048357	0.10403	0.246831
416.055067	0.122036	0.283053
416.061776	0.129489	0.321761
416.068486	0.13814	0.360833
416.075196	0.147033	0.394987
416.081906	0.138376	0.417765
416.088615	0.109926	0.435492
416.095325	0.069221	0.454155
416.102035	0.027325	0.479026
416.108744	-0.025723	0.508659
416.115454	-0.088657	0.539835
416.122164	-0.15001	0.568257
416.128873	-0.196192	0.586585
416.135583	-0.220497	0.595021
416.142293	-0.235056	0.595763
416.149003	-0.24542	0.597398
416.155712	-0.238967	0.600757
416.162422	-0.210782	0.598007
416.169132	-0.169178	0.586791
416.175841	-0.124786	0.566353
416.182551	-0.086546	0.534936
416.189261	-0.067133	0.499057
416.19597	-0.057773	0.458918
416.20268	-0.044703	0.421692
416.20939	-0.025946	0.389427
416.2161	0.007417	0.365652
416.222809	0.052293	0.349495
416.229519	0.099097	0.340419
416.236229	0.140586	0.332795
416.242938	0.173895	0.325362
416.249648	0.200256	0.312187
416.256358	0.208548	0.29265
416.263067	0.184599	0.272376
416.269777	0.126547	0.247953
416.276487	0.060747	0.221917
416.283197	0.021668	0.197056
416.289906	0.018507	0.173004
416.296616	0.053301	0.145713
416.303326	0.113312	0.116334
416.310035	0.178766	0.08861
416.316745	0.224898	0.062161
416.323455	0.243758	0.035137
416.330164	0.241612	0.012842
416.336874	0.2273	-0.002448
416.343584	0.232275	-0.015859
416.350294	0.262786	-0.0238
416.357003	0.308348	-0.029107
416.363713	0.355849	-0.032637
416.370423	0.393121	-0.033642
416.377132	0.419482	-0.02784
416.383842	0.471828	-0.013747
416.390552	0.542568	0.009932
416.397261	0.583955	0.039107
416.403971	0.586313	0.071144
416.410681	0.551571	0.104081
416.417391	0.495791	0.136666
416.4241	0.480816	0.170657
416.43081	0.514419	0.206394
416.43752	0.565406	0.239606
416.444229	0.603146	0.263504
416.450939	0.630734	0.278083
416.457649	0.663295	0.282716
416.464358	0.68282	0.289732
416.471068	0.67843	0.305921
416.477778	0.656827	0.334422
416.484488	0.643557	0.369872
416.491197	0.658955	0.409413
416.497907	0.693665	0.448508
416.504617	0.718283	0.489194
416.511326	0.718415	0.527211
416.518036	0.697277	0.558618
416.524746	0.679775	0.582733
416.531455	0.68558	0.602036
416.538165	0.709155	0.6257
416.544875	0.738295	0.650056
416.551585	0.763285	0.677279
416.558294	0.804092	0.700854
416.565004	0.866112	0.713262
416.571714	0.944072	0.710426
416.578423	1.003848	0.701941
416.585133	1.033953	0.700366
416.591843	1.044336	0.709921
416.598552	1.048391	0.742605
416.605262	1.058586	0.794294
416.611972	1.075808	0.849698
416.618682	1.115713	0.899864
416.625391	1.167914	0.937216
416.632101	1.226283	0.963887
416.638811	1.273293	0.988788
416.64552	1.307833	1.014044
416.65223	1.315435	1.044796
416.65894	1.301831	1.081999
416.665649	1.277344	1.125973
416.672359	1.257789	1.174232
416.679069	1.252849	1.219587
416.685779	1.25621	1.250874
416.692488	1.251117	1.264594
416.699198	1.264238	1.26214
416.705908	1.311014	1.252975
416.712617	1.377606	1.243858
416.719327	1.422159	1.244162
416.726037	1.403171	1.251673
416.732746	1.326291	1.264224
416.739456	1.236315	1.274599
416.746166	1.177316	1.278914
416.752876	1.152848	1.282718
416.759585	1.150811	1.280004
416.766295	1.162872	1.26994
416.773005	1.176965	1.265788
416.779714	1.193174	1.26891
416.786424	1.189597	1.277514
416.793134	1.157162	1.290435
416.799843	1.093128	1.309023
416.806553	1.019687	1.322284
416.813263	0.964382	1.318678
416.819973	0.941277	1.305182
416.826682	0.935098	1.2831
416.833392	0.934099	1.259429
416.840102	0.936696	1.240205
416.846811	0.939807	1.225772
416.853521	0.928698	1.20976
416.860231	0.891186	1.188979
416.86694	0.826033	1.157288
416.87365	0.749046	1.119639
416.88036	0.674743	1.076922
416.88707	0.60425	1.031261
416.893779	0.540839	0.988282
416.900489	0.483911	0.947692
416.907199	0.429132	0.906927
416.913908	0.354522	0.859916
416.920618	0.267015	0.809564
416.927328	0.181133	0.75255
416.934037	0.121477	0.689579
416.940747	0.0989	0.624944
416.947457	0.09425	0.558705
416.954167	0.099781	0.488883
416.960876	0.109442	0.421272
416.967586	0.125439	0.354213
416.974296	0.141772	0.288825
416.981005	0.157425	0.227401
416.987715	0.159837	0.172764
416.994425	0.143797	0.127026
417.001134	0.114032	0.090846
417.007844	0.084805	0.05633
417.014554	0.078599	0.017305
417.021264	0.092462	-0.023904
417.027973	0.117031	-0.061568
417.034683	0.131329	-0.09656
417.041393	0.121316	-0.124661
417.048102	0.095716	-0.139353
417.054812	0.065721	-0.14612
417.061522	0.028991	-0.149188
417.068231	-0.008245	-0.15361
417.074941	-0.044339	-0.163287
417.081651	-0.0766	-0.181721
417.088361	-0.092325	-0.207202
417.09507	-0.079452	-0.236815
417.10178	-0.04219	-0.267495
417.10849	0.008443	-0.295607
417.115199	0.04514	-0.326188
417.121909	0.054982	-0.355761
417.128619	0.0444	-0.377208
417.135328	0.020559	-0.394474
417.142038	-0.021428	-0.403716
417.148748	-0.065676	-0.408905
417.155458	-0.076017	-0.412855
417.162167	-0.044224	-0.419217
417.168877	0.004176	-0.425342
417.175587	0.030968	-0.428607
417.182296	0.021251	-0.420706
417.189006	-0.003363	-0.398623
417.195716	-0.016195	-0.36666
417.202425	-0.019841	-0.328471
417.209135	-0.025963	-0.284827
417.215845	-0.038443	-0.24353
417.222555	-0.038863	-0.211212
417.229264	-0.018282	-0.183829
417.235974	0.018137	-0.157436
417.242684	0.057455	-0.127045
417.249393	0.093645	-0.088921
417.256103	0.13365	-0.041335
417.262813	0.175274	0.012098
417.269522	0.205964	0.068581
417.276232	0.217267	0.118374
417.282942	0.207171	0.15683
417.289652	0.197151	0.187496
417.296361	0.209791	0.204816
417.303071	0.237204	0.217273
417.309781	0.261119	0.229816
417.31649	0.26692	0.249808
417.3232	0.262177	0.281907
417.32991	0.27787	0.324449
417.336619	0.319773	0.372201
417.343329	0.363605	0.423405
417.350039	0.396173	0.471911
417.356749	0.420723	0.512815
417.363458	0.44988	0.546872
417.370168	0.495969	0.577339
417.376878	0.544682	0.607017
417.383587	0.584377	0.637942
417.390297	0.616853	0.679188
417.397007	0.654314	0.729645
417.403716	0.701503	0.78223
417.410426	0.757291	0.831293
417.417136	0.818336	0.875014
417.423846	0.880573	0.912472
417.430555	0.939754	0.9442
417.437265	0.990391	0.976296
417.443975	1.019305	1.013323
417.450684	1.014729	1.052854
417.457394	0.986458	1.096364
417.464104	0.953415	1.13991
417.470813	0.952086	1.179833
417.477523	0.983	1.212675
417.484233	1.016754	1.235815
417.490943	1.038696	1.252709
417.497652	1.064567	1.264672
417.504362	1.10715	1.273066
417.511072	1.151993	1.278323
417.517781	1.172111	1.282726
417.524491	1.158668	1.290878
417.531201	1.143153	1.299583
417.53791	1.141868	1.309574
417.54462	1.151178	1.321694
417.55133	1.153091	1.330109
417.55804	1.144506	1.335477
417.564749	1.138908	1.33946
417.571459	1.149594	1.342347
417.578169	1.171602	1.352642
417.584878	1.184768	1.369704
417.591588	1.175414	1.389069
417.598298	1.155049	1.405505
417.605007	1.149788	1.416253
417.611717	1.158199	1.415442
417.618427	1.161567	1.406254
417.625137	1.148444	1.393405
417.631846	1.134593	1.379246
417.638556	1.143612	1.365577
417.645266	1.167677	1.354759
417.651975	1.18858	1.343342
417.658685	1.185362	1.330549
417.665395	1.161317	1.309899
417.672104	1.11846	1.274985
417.678814	1.060215	1.225292
417.685524	0.989834	1.164223
417.692234	0.915638	1.095607
417.698943	0.841006	1.026079
417.705653	0.780905	0.960525
417.712363	0.741924	0.901098
417.719072	0.711593	0.845132
417.725782	0.675795	0.788704
417.732492	0.63312	0.733447
417.739201	0.594869	0.673055
417.745911	0.56914	0.611231
417.752621	0.558247	0.545662
417.759331	0.547892	0.479396
417.76604	0.533356	0.414702
417.77275	0.522366	0.358141
417.77946	0.522604	0.310487
417.786169	0.534706	0.268113
417.792879	0.552013	0.232832
417.799589	0.558932	0.199609
417.806298	0.550655	0.162417
417.813008	0.5357	0.119597
417.819718	0.530905	0.07381
417.826428	0.527211	0.030494
417.833137	0.503122	-0.005034
417.839847	0.446446	-0.03081
417.846557	0.371202	-0.045684
417.853266	0.305396	-0.051501
417.859976	0.269198	-0.055368
417.866686	0.248014	-0.065082
417.873395	0.227161	-0.084398
417.880105	0.206604	-0.114586
417.886815	0.207584	-0.156302
417.893525	0.235799	-0.201586
417.900234	0.265257	-0.244944
417.906944	0.268109	-0.282696
417.913654	0.247306	-0.307831
417.920363	0.226191	-0.322443
417.927073	0.222273	-0.331829
417.933783	0.226667	-0.338748
417.940492	0.219902	-0.349038
417.947202	0.200027	-0.362652
417.953912	0.179331	-0.377235
417.960622	0.168944	-0.387956
417.967331	0.161696	-0.391354
417.974041	0.146816	-0.382968
417.980751	0.117788	-0.362479
417.98746	0.08539	-0.335008
417.99417	0.055591	-0.307268
418.00088	0.032983	-0.28151
418.007589	0.006839	-0.26408
418.014299	-0.023347	-0.249329
418.021009	-0.045434	-0.230687
418.027719	-0.041315	-0.200093
418.034428	-0.016818	-0.158321
418.041138	0.011395	-0.104616
418.047848	0.0357	-0.046573
418.054557	0.071697	0.009759
418.061267	0.122287	0.057877
418.067977	0.169646	0.096901
418.074686	0.189767	0.127286
418.081396	0.178959	0.153611
418.088106	0.156424	0.178213
418.094816	0.146956	0.200572
418.101525	0.148689	0.222778
418.108235	0.145079	0.247937
418.114945	0.134216	0.275155
418.121654	0.127749	0.302711
418.128364	0.132656	0.329608
418.135074	0.140213	0.355073
418.141783	0.140681	0.38004
418.148493	0.131379	0.407288
418.155203	0.119874	0.435655
418.161913	0.119031	0.467934
418.168622	0.130744	0.500118
418.175332	0.141088	0.527231
418.182042	0.154848	0.548747
418.188751	0.183024	0.565882
418.195461	0.232153	0.580126
418.202171	0.286892	0.592634
418.20888	0.326163	0.602567
418.21559	0.34424	0.611037
418.2223	0.352438	0.615938
418.22901	0.365921	0.61955
418.235719	0.383163	0.628816
418.242429	0.392328	0.641193
418.249139	0.388251	0.659681
418.255848	0.391675	0.681629
418.262558	0.415162	0.701515
418.269268	0.453949	0.716943
418.275977	0.482272	0.722988
418.282687	0.500167	0.720263
418.289397	0.511386	0.711897
418.296107	0.521616	0.699807
418.302816	0.527132	0.690137
418.309526	0.524314	0.687945
418.316236	0.522326	0.696101
418.322945	0.528618	0.714869
418.329655	0.54253	0.739049
418.336365	0.560303	0.764476
418.343074	0.577681	0.786199
418.349784	0.597399	0.802461
418.356494	0.633579	0.812444
418.363204	0.685134	0.820714
418.369913	0.735543	0.830341
418.376623	0.769528	0.845073
418.383333	0.785526	0.867814
418.390042	0.796774	0.897215
418.396752	0.815454	0.92814
418.403462	0.842433	0.957469
418.410171	0.872867	0.982671
418.416881	0.910409	1.001207
418.423591	0.959605	1.020341
418.430301	1.012231	1.043053
418.43701	1.05751	1.070513
418.44372	1.086951	1.103087
418.45043	1.099886	1.13679
418.457139	1.104815	1.164982
418.463849	1.105802	1.186945
418.470559	1.099786	1.20072
418.477268	1.081334	1.204586
418.483978	1.054765	1.200197
418.490688	1.032648	1.189318
418.497398	1.018034	1.175446
418.504107	1.012258	1.166426
418.510817	1.008773	1.157697
418.517527	1.008567	1.152954
418.524236	1.018169	1.150286
418.530946	1.0443	1.145668
418.537656	1.075341	1.135935
418.544365	1.097612	1.117485
418.551075	1.10775	1.092143
418.557785	1.114375	1.059063
418.564495	1.121381	1.022511
418.571204	1.123704	0.987971
418.577914	1.113554	0.956423
418.584624	1.090679	0.928619
418.591333	1.068791	0.903596
418.598043	1.05878	0.878245
418.604753	1.053786	0.851382
418.611462	1.033421	0.822759
418.618172	1.000325	0.7907
418.624882	0.962186	0.75494
418.631591	0.9271	0.718156
418.638301	0.89823	0.68504
418.645011	0.869647	0.65651
418.651721	0.842012	0.633101
418.65843	0.823265	0.609782
418.66514	0.817566	0.581471
418.67185	0.820007	0.546519
418.678559	0.826642	0.503524
418.685269	0.826043	0.456948
418.691979	0.815421	0.408937
418.698688	0.792805	0.363787
418.705398	0.760583	0.32514
418.712108	0.733758	0.293985
418.718818	0.723329	0.268214
418.725527	0.720169	0.244998
418.732237	0.713865	0.222245
418.738947	0.702691	0.198998
418.745656	0.691606	0.177748
418.752366	0.677131	0.15998
418.759076	0.653729	0.143302
418.765785	0.615771	0.129285
418.772495	0.570063	0.118338
418.779205	0.522053	0.112631
418.785915	0.48022	0.112255
418.792624	0.441214	0.118627
418.799334	0.401915	0.133779
418.806044	0.367675	0.153728
418.812753	0.353202	0.176238
418.819463	0.36996	0.20243
418.826173	0.410084	0.232549
418.832882	0.451501	0.264992
418.839592	0.478142	0.300093
418.846302	0.49524	0.334544
418.853012	0.509379	0.365717
418.859721	0.521961	0.394036
418.866431	0.522121	0.417404
418.873141	0.500603	0.436624
418.87985	0.464228	0.455822
418.88656	0.424325	0.470832
418.89327	0.384946	0.48295
418.899979	0.34592	0.495816
418.906689	0.305225	0.505806
418.913399	0.26905	0.514964
418.920109	0.23797	0.522188
418.926818	0.211727	0.53125
418.933528	0.180924	0.540405
418.940238	0.143739	0.548641
418.946947	0.105884	0.554333
418.953657	0.079411	0.550729
418.960367	0.070874	0.535727
418.967076	0.071105	0.510719
418.973786	0.068582	0.484622
418.980496	0.062409	0.459167
418.987206	0.063422	0.435937
418.993915	0.085664	0.413018
419.000625	0.117438	0.388016
419.007335	0.13981	0.361163
419.014044	0.145635	0.331347
419.020754	0.141238	0.297932
419.027464	0.135341	0.265615
419.034173	0.122952	0.236645
419.040883	0.097273	0.214483
419.047593	0.060865	0.196049
419.054303	0.024384	0.178511
419.061012	-0.003102	0.156664
419.067722	-0.018481	0.129074
419.074432	-0.029292	0.092261
419.081141	-0.041481	0.047164
419.087851	-0.04982	0.000521
419.094561	-0.052816	-0.042942
419.10127	-0.053859	-0.080459
419.10798	-0.056405	-0.107228
419.11469	-0.054808	-0.126752
419.1214	-0.04079	-0.142534
419.128109	-0.014884	-0.156707
419.134819	0.022594	-0.17055
419.141529	0.06552	-0.183677
419.148238	0.110465	-0.194321
419.154948	0.153405	-0.199351
419.161658	0.185037	-0.199195
419.168367	0.193364	-0.19075
419.175077	0.188992	-0.17293
419.181787	0.182296	-0.14924
419.188497	0.182196	-0.123796
419.195206	0.188888	-0.096696
419.201916	0.199898	-0.069593
419.208626	0.223301	-0.039552
419.215335	0.260832	-0.007685
419.222045	0.300373	0.029253
419.228755	0.323912	0.070319
419.235464	0.325818	0.110947
419.242174	0.318228	0.151571
419.248884	0.316548	0.189834
419.255594	0.328782	0.226539
419.262303	0.344345	0.26238
419.269013	0.35655	0.297533
419.275723	0.369364	0.330809
419.282432	0.3938	0.362436
419.289142	0.425958	0.391844
419.295852	0.456415	0.418848
419.302561	0.486464	0.444613
419.309271	0.516036	0.472818
419.315981	0.555409	0.504231
419.322691	0.592724	0.541471
419.3294	0.621423	0.579181
419.33611	0.634357	0.613892
419.34282	0.639484	0.64367
419.349529	0.644556	0.663462
419.356239	0.650941	0.674587
419.362949	0.651475	0.678966
419.369658	0.641867	0.684525
419.376368	0.631173	0.69611
419.383078	0.63096	0.716387
419.389788	0.647976	0.742571
419.396497	0.675117	0.772885
419.403207	0.703352	0.800988
419.409917	0.732163	0.823561
419.416626	0.761669	0.842581
419.423336	0.791543	0.859671
419.430046	0.816119	0.876499
419.436755	0.83351	0.896299
419.443465	0.847933	0.919143
419.450175	0.865042	0.944244
419.456885	0.888061	0.970435
419.463594	0.912303	0.994234
419.470304	0.942077	1.01179
419.477014	0.989259	1.023687
419.483723	1.049576	1.027817
419.490433	1.110626	1.029721
419.497143	1.148394	1.036662
419.503852	1.155688	1.047024
419.510562	1.143875	1.062765
419.517272	1.133045	1.082679
419.523982	1.134102	1.102421
419.530691	1.150554	1.12159
419.537401	1.171717	1.137808
419.544111	1.186816	1.152082
419.55082	1.197074	1.169206
419.55753	1.202255	1.189221
419.56424	1.201682	1.210576
419.570949	1.193689	1.231424
419.577659	1.18309	1.251529
419.584369	1.186788	1.271591
419.591079	1.205481	1.292544
419.597788	1.230751	1.313616
419.604498	1.256216	1.334266
419.611208	1.290318	1.355301
419.617917	1.341531	1.375644
419.624627	1.390957	1.393883
419.631337	1.409339	1.406076
419.638046	1.388836	1.411994
419.644756	1.346555	1.409544
419.651466	1.304077	1.401724
419.658176	1.270551	1.392905
419.664885	1.238195	1.383004
419.671595	1.194926	1.375142
419.678305	1.147922	1.369602
419.685014	1.107609	1.360775
419.691724	1.07424	1.346846
419.698434	1.032407	1.324638
419.705143	0.982598	1.296325
419.711853	0.93429	1.263419
419.718563	0.895452	1.228815
419.725273	0.866918	1.194296
419.731982	0.835903	1.159612
419.738692	0.798262	1.121056
419.745402	0.764988	1.078766
419.752111	0.744314	1.028495
419.758821	0.732913	0.971784
419.765531	0.720796	0.90979
419.77224	0.706013	0.850447
419.77895	0.689554	0.795867
419.78566	0.670327	0.746756
419.79237	0.639601	0.700628
419.799079	0.599091	0.656424
419.805789	0.555978	0.609355
419.812499	0.517699	0.558617
419.819208	0.47632	0.505605
419.825918	0.424912	0.451918
419.832628	0.365999	0.398548
419.839337	0.30902	0.348246
419.846047	0.268196	0.300504
419.852757	0.239228	0.251769
419.859467	0.208764	0.203877
419.866176	0.188374	0.15725
419.872886	0.187866	0.108821
419.879596	0.203992	0.060287
419.886305	0.219516	0.012329
419.893015	0.22141	-0.033231
419.899725	0.210196	-0.077862
419.906434	0.193456	-0.121
419.913144	0.185844	-0.160633
419.919854	0.177965	-0.197335
419.926564	0.168662	-0.231571
419.933273	0.156286	-0.263789
419.939983	0.150673	-0.295847
419.946693	0.155026	-0.3277
419.953402	0.160583	-0.357873
419.960112	0.153001	-0.387033
419.966822	0.126044	-0.413359
419.973531	0.09151	-0.435048
419.980241	0.063677	-0.455555
419.986951	0.046694	-0.47402
419.993661	0.033449	-0.489169
420.00037	0.016216	-0.501901
420.00708	-0.000116	-0.508466
420.01379	-0.007719	-0.509024
420.020499	-0.010727	-0.50616
420.027209	-0.018196	-0.502157
420.033919	-0.035526	-0.49564
420.040628	-0.058759	-0.489112
420.047338	-0.078218	-0.483724
420.054048	-0.088055	-0.476691
420.060758	-0.09941	-0.466809
420.067467	-0.112764	-0.454341
420.074177	-0.117938	-0.439236
420.080887	-0.110482	-0.42183
420.087596	-0.101571	-0.403643
420.094306	-0.104095	-0.383369
420.101016	-0.12138	-0.364825
420.107725	-0.142264	-0.34822
420.114435	-0.157575	-0.330364
420.121145	-0.167368	-0.309936
420.127855	-0.183062	-0.286953
420.134564	-0.20261	-0.262463
420.141274	-0.216465	-0.23751
420.147984	-0.218721	-0.214423
420.154693	-0.207936	-0.191403
420.161403	-0.189031	-0.169228
420.168113	-0.16827	-0.145415
420.174822	-0.149173	-0.117657
420.181532	-0.139289	-0.08378
420.188242	-0.131459	-0.047301
420.194952	-0.120262	-0.009761
420.201661	-0.094307	0.023712
420.208371	-0.053683	0.055106
420.215081	-0.009462	0.086511
420.22179	0.030237	0.121319
420.2285	0.066313	0.159045
420.23521	0.103073	0.20153
420.241919	0.147057	0.24799
420.248629	0.197521	0.295312
420.255339	0.252725	0.344985
420.262049	0.310118	0.393999
420.268758	0.373688	0.438642
420.275468	0.435916	0.480764
420.282178	0.490846	0.522808
420.288887	0.532609	0.565126
420.295597	0.56508	0.613674
420.302307	0.593302	0.667144
420.309016	0.61999	0.72287
420.315726	0.642604	0.775796
420.322436	0.661013	0.826123
420.329146	0.690421	0.869414
420.335855	0.737637	0.906741
420.342565	0.795697	0.945249
420.349275	0.850827	0.98395
420.355984	0.900888	1.021835
420.362694	0.946131	1.060362
420.369404	0.984071	1.095889
420.376113	1.010995	1.12751
420.382823	1.025656	1.154673
420.389533	1.041508	1.177801
420.396243	1.06416	1.196843
420.402952	1.089297	1.215721
420.409662	1.114913	1.238089
420.416372	1.132972	1.263946
420.423081	1.143057	1.29422
420.429791	1.155727	1.323288
420.436501	1.168289	1.345781
420.44321	1.172264	1.359072
420.44992	1.155969	1.362957
420.45663	1.128591	1.360411
420.46334	1.105086	1.355168
420.470049	1.097172	1.351388
420.476759	1.102108	1.353043
420.483469	1.111853	1.357843
420.490178	1.118117	1.363396
420.496888	1.122747	1.368565
420.503598	1.124238	1.367767
420.510307	1.117116	1.36186
420.517017	1.104419	1.352562
420.523727	1.091544	1.337483
420.530437	1.083861	1.320312
420.537146	1.084488	1.303585
420.543856	1.088169	1.286243
420.550566	1.08903	1.269804
420.557275	1.085337	1.253927
420.563985	1.083406	1.238382
420.570695	1.085945	1.220731
420.577404	1.091992	1.199965
420.584114	1.087233	1.178782
420.590824	1.072727	1.156224
420.597534	1.051482	1.134352
420.604243	1.035265	1.113531
420.610953	1.023631	1.094149
420.617663	1.012711	1.073304
420.624372	1.00139	1.052477
420.631082	0.996867	1.028885
420.637792	0.996953	1.005061
420.644501	1.005391	0.976637
420.651211	1.013737	0.947792
420.657921	1.024154	0.919291
420.664631	1.033986	0.891235
420.67134	1.039757	0.864737
420.67805	1.034355	0.841095
420.68476	1.01668	0.820118
420.691469	0.995224	0.801777
420.698179	0.978326	0.782635
420.704889	0.97116	0.761867
420.711598	0.972782	0.740768
420.718308	0.978444	0.720159
420.725018	0.976563	0.697668
420.731728	0.966703	0.67274
420.738437	0.952028	0.643375
420.745147	0.936053	0.609612
420.751857	0.917766	0.573232
420.758566	0.895001	0.537407
420.765276	0.862835	0.505408
420.771986	0.821101	0.477852
420.778695	0.77082	0.452133
420.785405	0.718653	0.4248
420.792115	0.674723	0.394746
420.798825	0.640967	0.362118
420.805534	0.615265	0.326403
420.812244	0.593477	0.291588
420.818954	0.572677	0.259654
420.825663	0.546095	0.231121
420.832373	0.512353	0.206289
420.839083	0.474538	0.182924
420.845792	0.431502	0.159531
420.852502	0.378855	0.1348
420.859212	0.323178	0.109653
420.865922	0.272534	0.08433
420.872631	0.238357	0.05855
420.879341	0.218897	0.035513
420.886051	0.202859	0.018239
420.89276	0.179072	0.003211
420.89947	0.148494	-0.00326
420.90618	0.118433	-0.006227
420.912889	0.091568	-0.009355
420.919599	0.066506	-0.01468
420.926309	0.03511	-0.022355
420.933019	0.006153	-0.031298
420.939728	-0.014831	-0.040249
420.946438	-0.026773	-0.04639
420.953148	-0.043724	-0.047582
420.959857	-0.067361	-0.043999
420.966567	-0.090433	-0.039259
420.973277	-0.098794	-0.03532
420.979986	-0.092506	-0.033046
420.986696	-0.08514	-0.032552
420.993406	-0.085767	-0.036707
421.000116	-0.092589	-0.040187
421.006825	-0.093785	-0.040709
421.013535	-0.079096	-0.037528
421.020245	-0.049235	-0.029872
421.026954	-0.014938	-0.018978
421.033664	0.020108	-0.003617
421.040374	0.053138	0.012465
421.047083	0.078577	0.027999
421.053793	0.090179	0.042998
421.060503	0.09276	0.056246
421.067213	0.09555	0.069071
421.073922	0.10728	0.085449
421.080632	0.121764	0.105203
421.087342	0.129622	0.129509
421.094051	0.133224	0.153782
421.100761	0.145491	0.177118
421.107471	0.167471	0.195668
421.11418	0.195487	0.21219
421.12089	0.217724	0.223959
421.1276	0.233622	0.236499
421.13431	0.250454	0.247937
421.141019	0.273444	0.257813
421.147729	0.299706	0.269692
421.154439	0.319285	0.280871
421.161148	0.325738	0.287979
421.167858	0.32233	0.293075
421.174568	0.318588	0.296513
421.181277	0.319812	0.298223
421.187987	0.320869	0.300232
421.194697	0.325795	0.301608
421.201407	0.338957	0.303362
421.208116	0.359432	0.304694
421.214826	0.376707	0.304884
421.221536	0.381076	0.303681
421.228245	0.369423	0.302719
421.234955	0.350149	0.299175
421.241665	0.333572	0.296696
421.248374	0.322366	0.292937
421.255084	0.312708	0.290832
421.261794	0.30345	0.291236
421.268504	0.295689	0.296892
421.275213	0.296338	0.305313
421.281923	0.309256	0.316221
421.288633	0.328742	0.325651
421.295342	0.353672	0.33692
421.302052	0.378465	0.34612
421.308762	0.400834	0.356797
421.315471	0.421416	0.366613
421.322181	0.43139	0.380819
421.328891	0.433687	0.394463
421.335601	0.436269	0.410841
421.34231	0.447558	0.430427
421.34902	0.469247	0.45125
421.35573	0.496343	0.473172
421.362439	0.52243	0.494895
421.369149	0.544755	0.51529
421.375859	0.569837	0.534452
421.382568	0.594273	0.552646
421.389278	0.614173	0.570987
421.395988	0.627269	0.594961
421.402698	0.634857	0.62311
421.409407	0.645317	0.65355
421.416117	0.665973	0.683041
421.422827	0.697646	0.711372
421.429536	0.734975	0.736005
421.436246	0.772744	0.758485
421.442956	0.806503	0.780326
421.449665	0.836098	0.801997
421.456375	0.859176	0.82579
421.463085	0.883647	0.848339
421.469795	0.911115	0.869126
421.476504	0.940666	0.888799
421.483214	0.971097	0.908091
421.489924	1.000297	0.928082
421.496633	1.027229	0.950066
421.503343	1.055588	0.975814
421.510053	1.083666	1.001236
421.516762	1.103857	1.024503
421.523472	1.117392	1.045549
421.530182	1.125937	1.06334
421.536892	1.131	1.075544
421.543601	1.127973	1.085424
421.550311	1.115746	1.096784
421.557021	1.098535	1.110395
421.56373	1.087381	1.124671
421.57044	1.088515	1.142358
421.57715	1.099734	1.157046
421.583859	1.109899	1.167446
421.590569	1.120659	1.172101
421.597279	1.131983	1.168221
421.603989	1.142782	1.160211
421.610698	1.147791	1.149801
421.617408	1.143365	1.139095
421.624118	1.124668	1.128207
421.630827	1.100868	1.119878
421.637537	1.076979	1.115131
421.644247	1.054448	1.111263
421.650956	1.034712	1.101901
421.657666	1.013278	1.091152
421.664376	0.994729	1.081265
421.671086	0.982525	1.07306
421.677795	0.977071	1.067299
421.684505	0.971368	1.062393
421.691215	0.960501	1.060547
421.697924	0.944117	1.056764
421.704634	0.925476	1.049078
421.711344	0.901604	1.036544
421.718053	0.869441	1.021846
421.724763	0.834748	1.001141
421.731473	0.805441	0.981213
421.738183	0.788601	0.96368
421.744892	0.781352	0.950851
421.751602	0.776552	0.940888
421.758312	0.779376	0.932183
421.765021	0.786134	0.922841
421.771731	0.794728	0.910258
421.778441	0.794644	0.897451
421.78515	0.782456	0.878382
421.79186	0.763659	0.855457
421.79857	0.743142	0.832281
421.80528	0.725388	0.808355
421.811989	0.710884	0.787685
421.818699	0.698324	0.767485
421.825409	0.686787	0.745425
421.832118	0.675854	0.717972
421.838828	0.661236	0.688301
421.845538	0.638605	0.653803
421.852247	0.606962	0.616585
421.858957	0.572587	0.57795
421.865667	0.541091	0.537998
421.872377	0.516732	0.497549
421.879086	0.497793	0.45818
421.885796	0.477992	0.42091
421.892506	0.454902	0.386174
421.899215	0.429469	0.352208
421.905925	0.403256	0.318727
421.912635	0.37826	0.281174
421.919344	0.349694	0.236696
421.926054	0.321212	0.188511
421.932764	0.290354	0.140234
421.939474	0.261727	0.095736
421.946183	0.234725	0.057759
421.952893	0.212185	0.025658
421.959603	0.193235	-0.002519
421.966312	0.173541	-0.029804
421.973022	0.152435	-0.059682
421.979732	0.128015	-0.092627
421.986441	0.101884	-0.129237
421.993151	0.074406	-0.16603
421.999861	0.040415	-0.19885
422.006571	0.005211	-0.227298
422.01328	-0.030991	-0.254289
422.01999	-0.06606	-0.275486
422.0267	-0.098265	-0.292287
422.033409	-0.127597	-0.306374
422.040119	-0.150512	-0.319791
422.046829	-0.163988	-0.333499
422.053538	-0.16624	-0.344753
422.060248	-0.159991	-0.353149
422.066958	-0.151618	-0.359995
422.073668	-0.14063	-0.365088
422.080377	-0.126971	-0.364932
422.087087	-0.110602	-0.361303
422.093797	-0.095894	-0.354212
422.100506	-0.089419	-0.344233
422.107216	-0.094367	-0.334178
422.113926	-0.104648	-0.323854
422.120635	-0.109396	-0.313988
422.127345	-0.108055	-0.303357
422.134055	-0.098482	-0.289531
422.140765	-0.08384	-0.274026
422.147474	-0.067426	-0.254088
422.154184	-0.051307	-0.232057
422.160894	-0.033145	-0.208959
422.167603	-0.016645	-0.18188
422.174313	0.000938	-0.154545
422.181023	0.020907	-0.129071
422.187732	0.044675	-0.103451
422.194442	0.072049	-0.077466
422.201152	0.097632	-0.051065
422.207862	0.120593	-0.020593
422.214571	0.148617	0.017104
422.221281	0.187674	0.057817
422.227991	0.24032	0.098441
422.2347	0.292406	0.137256
422.24141	0.339182	0.171173
422.24812	0.380878	0.203775
422.254829	0.421145	0.23528
422.261539	0.459288	0.267655
422.268249	0.491931	0.303429
422.274959	0.516521	0.344298
422.281668	0.534384	0.387069
422.288378	0.549379	0.430309
422.295088	0.56351	0.474335
422.301797	0.57606	0.519243
422.308507	0.59097	0.563194
422.315217	0.610864	0.605339
422.321926	0.634897	0.646806
422.328636	0.661676	0.688221
422.335346	0.68101	0.730113
422.342056	0.699693	0.772818
422.348765	0.721461	0.815672
422.355475	0.751802	0.855637
422.362185	0.787395	0.891673
422.368894	0.823019	0.921906
422.375604	0.857003	0.946278
422.382314	0.886635	0.969429
422.389023	0.910386	0.99521
422.395733	0.929223	1.021736
422.402443	0.941026	1.049119
422.409153	0.944046	1.075682
422.415862	0.942542	1.098698
422.422572	0.943879	1.11655
422.429282	0.947429	1.129808
422.435991	0.953867	1.141608
422.442701	0.961114	1.155235
422.449411	0.970495	1.17122
422.45612	0.984208	1.190802
422.46283	0.998576	1.212267
422.46954	1.010617	1.231593
422.476249	1.017853	1.248487
422.482959	1.021418	1.262809
422.489669	1.023432	1.274135
422.496379	1.026082	1.282311
422.503088	1.031121	1.288918
422.509798	1.03848	1.296405
422.516508	1.04956	1.303346
422.523217	1.061503	1.31405
422.529927	1.076304	1.325675
422.536637	1.096273	1.334108
422.543346	1.122744	1.339939
422.550056	1.149102	1.338877
422.556766	1.169451	1.330691
422.563476	1.178347	1.319427
422.570185	1.175467	1.307035
422.576895	1.164058	1.295786
422.583605	1.148791	1.287917
422.590314	1.126163	1.280795
422.597024	1.102007	1.272358
422.603734	1.08501	1.261687
422.610443	1.075381	1.249101
422.617153	1.07272	1.233807
422.623863	1.071141	1.215925
422.630573	1.071924	1.194819
422.637282	1.072169	1.169989
422.643992	1.070309	1.14005
422.650702	1.060239	1.105354
422.657411	1.039388	1.068172
422.664121	1.009877	1.029742
422.670831	0.983982	0.991531
422.67754	0.968761	0.952368
422.68425	0.960129	0.916296
422.69096	0.948707	0.882212
422.69767	0.927861	0.848542
422.704379	0.90539	0.815942
422.711089	0.885295	0.780873
422.717799	0.86324	0.742136
422.724508	0.83378	0.699483
422.731218	0.79553	0.657008
422.737928	0.756549	0.613571
422.744637	0.718209	0.572753
422.751347	0.679685	0.531862
422.758057	0.641938	0.493543
422.764767	0.600646	0.454654
422.771476	0.561216	0.418732
422.778186	0.526068	0.383966
422.784896	0.4896	0.346875
422.791605	0.4466	0.310766
422.798315	0.403143	0.273331
422.805025	0.369344	0.237863
422.811734	0.350073	0.201803
422.818444	0.340741	0.168422
422.825154	0.329214	0.136956
422.831864	0.314931	0.11139
422.838573	0.297639	0.087516
422.845283	0.277764	0.063425
422.851993	0.257613	0.041149
422.858702	0.237333	0.018644
422.865412	0.218385	-0.003386
422.872122	0.197941	-0.026427
422.878831	0.173541	-0.046028
422.885541	0.148195	-0.062447
422.892251	0.122086	-0.076729
422.898961	0.098518	-0.087736
422.90567	0.07445	-0.097887
422.91238	0.05068	-0.106276
422.91909	0.033224	-0.114657
422.925799	0.024969	-0.121882
422.932509	0.022851	-0.126712
422.939219	0.024728	-0.128245
422.945928	0.023809	-0.127133
422.952638	0.024258	-0.123981
422.959348	0.027629	-0.12038
422.966058	0.032741	-0.118236
422.972767	0.035467	-0.115392
422.979477	0.034361	-0.110521
422.986187	0.035794	-0.104244
422.992896	0.045972	-0.095772
422.999606	0.064789	-0.085213
423.006316	0.08868	-0.076407
423.013025	0.111695	-0.068044
423.019735	0.131288	-0.061191
423.026445	0.146116	-0.054409
423.033155	0.153766	-0.047208
423.039864	0.154366	-0.037786
423.046574	0.149114	-0.025431
423.053284	0.139662	-0.013627
423.059993	0.128779	0.00092
423.066703	0.119219	0.01697
423.073413	0.111048	0.034954
423.080122	0.11306	0.05345
423.086832	0.122818	0.073828
423.093542	0.140296	0.089202
423.100252	0.159295	0.102057
423.106961	0.178226	0.114081
423.113671	0.193616	0.128515
423.120381	0.21022	0.146927
423.12709	0.232493	0.17048
423.1338	0.25909	0.193751
423.14051	0.282315	0.217687
423.147219	0.303517	0.239249
423.153929	0.315743	0.256011
423.160639	0.325171	0.270657
423.167349	0.333769	0.283901
423.174058	0.343222	0.295827
423.180768	0.35309	0.307633
423.187478	0.364001	0.323077
423.194187	0.372241	0.343391
423.200897	0.3812	0.365312
423.207607	0.38828	0.389081
423.214316	0.395547	0.411894
423.221026	0.40556	0.434124
423.227736	0.414037	0.455279
423.234446	0.42108	0.472386
423.241155	0.427643	0.489894
423.247865	0.437172	0.507051
423.254575	0.453434	0.526326
423.261284	0.474225	0.547818
423.267994	0.497889	0.572145
423.274704	0.523801	0.59706
423.281413	0.551097	0.623094
423.288123	0.578435	0.648978
423.294833	0.60181	0.673854
423.301543	0.6213	0.697847
423.308252	0.642483	0.723409
423.314962	0.667309	0.746332
423.321672	0.694493	0.771585
423.328381	0.718051	0.796506
423.335091	0.733159	0.819826
423.341801	0.742627	0.843429
423.34851	0.752119	0.86483
423.35522	0.760286	0.883639
423.36193	0.766493	0.898822
423.36864	0.771225	0.912821
423.375349	0.776721	0.923654
423.382059	0.783758	0.93344
423.388769	0.797226	0.943144
423.395478	0.817051	0.952256
423.402188	0.847921	0.959851
423.408898	0.884928	0.966392
423.415607	0.921322	0.97111
423.422317	0.949549	0.973672
423.429027	0.96864	0.974327
423.435737	0.979398	0.97349
423.442446	0.984715	0.972982
423.449156	0.991994	0.969671
423.455866	0.99866	0.964604
423.462575	1.007362	0.958772
423.469285	1.016484	0.954344
423.475995	1.02464	0.949097
423.482704	1.034187	0.943249
423.489414	1.046564	0.939373
423.496124	1.05755	0.93797
423.502834	1.061669	0.938894
423.509543	1.054836	0.941475
423.516253	1.038479	0.943546
423.522963	1.017892	0.944427
423.529672	1.000508	0.943139
423.536382	0.986785	0.940089
423.543092	0.976564	0.934072
423.549801	0.96857	0.927825
423.556511	0.964592	0.922459
423.563221	0.961541	0.920002
423.569931	0.962377	0.921672
423.57664	0.969136	0.923805
423.58335	0.981993	0.92626
423.59006	0.998686	0.928002
423.596769	1.009433	0.925646
423.603479	1.011518	0.918812
423.610189	1.003359	0.909528
423.616898	0.987636	0.898966
423.623608	0.9679	0.887558
423.630318	0.949579	0.880918
423.637028	0.933573	0.875905
423.643737	0.915716	0.87559
423.650447	0.896228	0.876112
423.657157	0.874843	0.876474
423.663866	0.854252	0.872865
423.670576	0.83496	0.869438
423.677286	0.819425	0.864332
423.683995	0.802745	0.857566
423.690705	0.782025	0.851646
423.697415	0.75814	0.844884
423.704125	0.737089	0.838653
423.710834	0.722186	0.831267
423.717544	0.710282	0.825663
423.724254	0.701524	0.818699
423.730963	0.693095	0.811212
423.737673	0.685106	0.799696
423.744383	0.677946	0.786094
423.751092	0.67032	0.76794
423.757802	0.6639	0.747051
423.764512	0.659731	0.723067
423.771222	0.653139	0.698802
423.777931	0.643186	0.676637
423.784641	0.628524	0.65599
423.791351	0.610793	0.635171
423.79806	0.59576	0.610573
423.80477	0.577158	0.580451
423.81148	0.55057	0.546927
423.818189	0.513904	0.512634
423.824899	0.472958	0.476164
423.831609	0.430212	0.440865
423.838319	0.391781	0.405232
423.845028	0.355535	0.372594
423.851738	0.325947	0.3415
423.858448	0.30461	0.314604
423.865157	0.291374	0.287713
423.871867	0.280581	0.261408
423.878577	0.267688	0.233814
423.885286	0.256401	0.205976
423.891996	0.24805	0.177777
423.898706	0.24099	0.148033
423.905416	0.233715	0.121377
423.912125	0.226533	0.096853
423.918835	0.218104	0.076762
423.925545	0.204797	0.0593
423.932254	0.187816	0.044449
423.938964	0.165957	0.029474
423.945674	0.144231	0.015318
423.952383	0.129903	-0.000993
423.959093	0.118158	-0.017753
423.965803	0.105354	-0.034362
423.972513	0.091692	-0.046518
423.979222	0.078564	-0.057513
423.985932	0.061792	-0.066594
423.992642	0.043228	-0.073753
423.999351	0.020551	-0.082545
424.006061	-0.001239	-0.092137
424.012771	-0.022899	-0.100088
424.01948	-0.038842	-0.110913
424.02619	-0.044538	-0.117923
424.0329	-0.039648	-0.123243
424.03961	-0.030909	-0.12309
424.046319	-0.021498	-0.121836
424.053029	-0.01366	-0.119229
424.059739	-0.005371	-0.11833
424.066448	0.00298	-0.116386
424.073158	0.010889	-0.114926
424.079868	0.015888	-0.113837
424.086577	0.017296	-0.109568
424.093287	0.016525	-0.102759
424.099997	0.015431	-0.093949
424.106707	0.014873	-0.083261
424.113416	0.015264	-0.071929
424.120126	0.018066	-0.060711
424.126836	0.022198	-0.051153
424.133545	0.030444	-0.041921
424.140255	0.040027	-0.033426
424.146965	0.053212	-0.025193
424.153674	0.071917	-0.013264
424.160384	0.094532	0.000382
424.167094	0.119077	0.015031
424.173804	0.145234	0.029253
424.180513	0.172222	0.040729
424.187223	0.200368	0.050463
424.193933	0.226131	0.059108
424.200642	0.248209	0.067085
424.207352	0.272002	0.075759
424.214062	0.298927	0.086472
424.220771	0.329146	0.102442
424.227481	0.35947	0.122975
424.234191	0.387004	0.14563
424.240901	0.415572	0.168043
424.24761	0.445254	0.190953
424.25432	0.476828	0.213761
424.26103	0.50364	0.237127
424.267739	0.525283	0.262989
424.274449	0.545264	0.291729
424.281159	0.570662	0.32203
424.287868	0.596004	0.355985
424.294578	0.618733	0.394497
424.301288	0.637495	0.438617
424.307998	0.658813	0.484857
424.314707	0.684263	0.533368
424.321417	0.712775	0.579629
424.328127	0.739044	0.623139
424.334836	0.767514	0.663746
424.341546	0.801931	0.704397
424.348256	0.842488	0.747953
424.354965	0.886121	0.794686
424.361675	0.925851	0.842852
424.368385	0.958461	0.891081
424.375095	0.986184	0.934763
424.381804	1.01019	0.975687
424.388514	1.027212	1.01351
424.395224	1.038193	1.048977
424.401933	1.046408	1.084959
424.408643	1.058759	1.117914
424.415353	1.076777	1.14945
424.422062	1.097689	1.180388
424.428772	1.118824	1.212488
424.435482	1.138777	1.242823
424.442192	1.159168	1.273544
424.448901	1.175266	1.30176
424.455611	1.185492	1.328081
424.462321	1.190042	1.353827
424.46903	1.192774	1.380211
424.47574	1.190257	1.405876
424.48245	1.185789	1.428534
424.489159	1.1817	1.447525
424.495869	1.180576	1.460476
424.502579	1.185968	1.467436
424.509289	1.195848	1.469821
424.515998	1.206631	1.469182
424.522708	1.214999	1.467461
424.529418	1.219832	1.466846
424.536127	1.223832	1.465147
424.542837	1.2253	1.460514
424.549547	1.222367	1.449003
424.556256	1.212181	1.431061
424.562966	1.19325	1.406855
424.569676	1.171827	1.377316
424.576386	1.147628	1.346565
424.583095	1.121046	1.315001
424.589805	1.090456	1.287175
424.596515	1.05832	1.260249
424.603224	1.031121	1.232973
424.609934	1.009849	1.201826
424.616644	0.990658	1.16472
424.623353	0.968997	1.122445
424.630063	0.949093	1.078363
424.636773	0.930146	1.034842
424.643483	0.912315	0.992327
424.650192	0.892668	0.953771
424.656902	0.867227	0.920325
424.663612	0.841147	0.891272
424.670321	0.819946	0.864224
424.677031	0.800987	0.83637
424.683741	0.784496	0.805712
424.69045	0.768423	0.774667
424.69716	0.754589	0.743807
424.70387	0.74166	0.714244
424.71058	0.72515	0.68785
424.717289	0.705934	0.666019
424.723999	0.684774	0.64234
424.730709	0.662712	0.618571
424.737418	0.641072	0.592307
424.744128	0.618099	0.562753
424.750838	0.589162	0.530884
424.757547	0.556218	0.499366
424.764257	0.521954	0.470151
424.770967	0.487079	0.442744
424.777677	0.45285	0.415736
424.784386	0.413018	0.38843
424.791096	0.376105	0.357434
424.797806	0.350321	0.325487
424.804515	0.33568	0.290733
424.811225	0.326642	0.253854
424.817935	0.316301	0.216614
424.824644	0.301982	0.182215
424.831354	0.287014	0.1517
424.838064	0.271172	0.125738
424.844774	0.250057	0.099605
424.851483	0.223202	0.074772
424.858193	0.192305	0.048532
424.864903	0.163668	0.02181
424.871612	0.136835	-0.005072
424.878322	0.109335	-0.030062
424.885032	0.079414	-0.052136
424.891741	0.055559	-0.073999
424.898451	0.038228	-0.094679
424.905161	0.025338	-0.115475
424.911871	0.01151	-0.139169
424.91858	-0.002881	-0.161615
424.92529	-0.016942	-0.183798
424.932	-0.026287	-0.20482
424.938709	-0.034367	-0.222567
424.945419	-0.043409	-0.24151
424.952129	-0.056854	-0.257727
424.958838	-0.067843	-0.270546
424.965548	-0.075874	-0.282434
424.972258	-0.080124	-0.293311
424.978968	-0.087657	-0.302044
424.985677	-0.092656	-0.312609
424.992387	-0.09011	-0.322328
424.999097	-0.076591	-0.33039
425.005806	-0.060829	-0.335848
425.012516	-0.047962	-0.337669
425.019226	-0.038235	-0.334112
425.025935	-0.029911	-0.330112
425.032645	-0.024352	-0.321466
425.039355	-0.023334	-0.311105
425.046065	-0.024981	-0.297754
425.052774	-0.025764	-0.281738
425.059484	-0.019636	-0.262771
425.066194	-0.007755	-0.239943
425.072903	0.005568	-0.214316
425.079613	0.016134	-0.18516
425.086323	0.029956	-0.153464
425.093032	0.051402	-0.121403
425.099742	0.075725	-0.090566
425.106452	0.095646	-0.059849
425.113162	0.114855	-0.029607
425.119871	0.135851	0.002941
425.126581	0.162444	0.037261
425.133291	0.190737	0.074695
425.14	0.216553	0.111705
425.14671	0.241519	0.148183
425.15342	0.265908	0.182835
425.160129	0.291906	0.215963
425.166839	0.318578	0.246617
425.173549	0.344161	0.27797
425.180259	0.368202	0.312153
425.186968	0.392336	0.347652
425.193678	0.417943	0.382118
425.200388	0.442522	0.417562
425.207097	0.46541	0.453473
425.213807	0.487182	0.487562
425.220517	0.507456	0.519287
425.227226	0.527272	0.549584
425.233936	0.541457	0.58012
425.240646	0.552738	0.612011
425.247356	0.563711	0.647298
425.254065	0.573986	0.683694
425.260775	0.588116	0.718494
425.267485	0.606106	0.750607
425.274194	0.627448	0.778693
425.280904	0.654091	0.805077
425.287614	0.685949	0.827092
425.294323	0.719541	0.847677
425.301033	0.75086	0.865576
425.307743	0.778051	0.884227
425.314453	0.804937	0.902422
425.321162	0.830699	0.921821
425.327872	0.852237	0.938291
425.334582	0.864584	0.957269
425.341291	0.871478	0.973089
425.348001	0.875719	0.983213
425.354711	0.883752	0.991016
425.36142	0.889163	0.998413
425.36813	0.893463	1.007803
425.37484	0.895465	1.018971
425.38155	0.903294	1.029103
425.388259	0.917486	1.038544
425.394969	0.937458	1.045348
425.401679	0.953214	1.051047
425.408388	0.967003	1.055606
425.415098	0.978747	1.059682
425.421808	0.991904	1.064547
425.428517	1.005217	1.069984
425.435227	1.01692	1.077629
425.441937	1.029004	1.084826
425.448647	1.043914	1.091011
425.455356	1.061662	1.096025
425.462066	1.085633	1.100721
425.468776	1.110665	1.104882
425.475485	1.137209	1.109804
425.482195	1.159634	1.115747
425.488905	1.174251	1.121435
425.495614	1.178406	1.128524
425.502324	1.177706	1.133621
425.509034	1.171868	1.138298
425.515744	1.163825	1.139963
425.522453	1.153719	1.137925
425.529163	1.140575	1.132425
425.535873	1.123925	1.123767
425.542582	1.106116	1.112234
425.549292	1.090975	1.09729
425.556002	1.0756	1.079869
425.562711	1.061256	1.061924
425.569421	1.047424	1.043195
425.576131	1.036715	1.023674
425.582841	1.029563	1.003125
425.58955	1.022721	0.981318
425.59626	1.017129	0.958316
425.60297	1.010831	0.936927
425.609679	1.001027	0.917462
425.616389	0.983618	0.899197
425.623099	0.958561	0.881657
425.629808	0.928696	0.861288
425.636518	0.902921	0.840599
425.643228	0.881632	0.818042
425.649938	0.860062	0.797074
425.656647	0.834412	0.777079
425.663357	0.808673	0.758316
425.670067	0.78442	0.739319
425.676776	0.76091	0.719734
425.683486	0.733994	0.700079
425.690196	0.699905	0.678266
425.696905	0.667442	0.653968
425.703615	0.641006	0.630692
425.710325	0.620489	0.605395
425.717035	0.598543	0.582615
425.723744	0.570175	0.559514
425.730454	0.538572	0.539139
425.737164	0.511598	0.520117
425.743873	0.493262	0.50261
425.750583	0.479041	0.48402
425.757293	0.466896	0.465095
425.764002	0.455668	0.445674
425.770712	0.448779	0.426398
425.777422	0.444191	0.407498
425.784132	0.438605	0.389377
425.790841	0.429134	0.372103
425.797551	0.41328	0.355612
425.804261	0.393068	0.338661
425.81097	0.370548	0.31941
425.81768	0.346876	0.300489
425.82439	0.321554	0.282294
425.831099	0.299122	0.264893
425.837809	0.27851	0.248992
425.844519	0.260482	0.236885
425.851229	0.244785	0.226704
425.857938	0.234738	0.216098
425.864648	0.229408	0.20579
425.871358	0.224602	0.194664
425.878067	0.21795	0.184462
425.884777	0.207064	0.17152
425.891487	0.194813	0.157625
425.898196	0.181571	0.144699
425.904906	0.172262	0.133468
425.911616	0.168094	0.121757
425.918326	0.16292	0.109887
425.925035	0.155277	0.097822
425.931745	0.145242	0.085264
425.938455	0.138025	0.069604
425.945164	0.131415	0.052561
425.951874	0.123898	0.037688
425.958584	0.111166	0.023607
425.965293	0.097272	0.011346
425.972003	0.082634	0.001675
425.978713	0.069014	-0.006635
425.985423	0.053935	-0.01426
425.992132	0.034397	-0.020847
425.998842	0.013528	-0.027307
426.005552	-0.00702	-0.03564
426.012261	-0.023189	-0.04241
426.018971	-0.036628	-0.049095
426.025681	-0.043904	-0.054441
426.03239	-0.043788	-0.057572
426.0391	-0.036998	-0.058595
426.04581	-0.026435	-0.05639
426.05252	-0.015023	-0.052257
426.059229	0.000431	-0.04982
426.065939	0.01546	-0.048007
426.072649	0.026366	-0.045916
426.079358	0.034282	-0.043369
426.086068	0.04533	-0.042077
426.092778	0.058734	-0.038864
426.099487	0.070187	-0.033811
426.106197	0.076198	-0.026873
426.112907	0.079112	-0.017306
426.119617	0.085106	-0.004837
426.126326	0.09479	0.007894
426.133036	0.106223	0.022018
426.139746	0.116615	0.033934
426.146455	0.127068	0.047024
426.153165	0.141427	0.060249
426.159875	0.162514	0.072494
426.166584	0.189055	0.086873
426.173294	0.218394	0.102437
426.180004	0.248667	0.120646
426.186714	0.280184	0.141023
426.193423	0.311107	0.16302
426.200133	0.337258	0.187112
426.206843	0.360785	0.211979
426.213552	0.389309	0.236447
426.220262	0.423572	0.262441
426.226972	0.463844	0.290452
426.233681	0.507337	0.320821
426.240391	0.550424	0.351564
426.247101	0.587475	0.383574
426.253811	0.620394	0.413096
426.26052	0.648741	0.442343
426.26723	0.674255	0.469775
426.27394	0.693736	0.496846
426.280649	0.707414	0.52474
426.287359	0.719405	0.55318
426.294069	0.731272	0.582228
426.300778	0.744235	0.611703
426.307488	0.758951	0.640438
426.314198	0.777697	0.668136
426.320907	0.797722	0.693127
426.327617	0.818788	0.714265
426.334327	0.840434	0.732828
426.341037	0.862675	0.748639
426.347746	0.883162	0.764542
426.354456	0.899082	0.783473
426.361166	0.912452	0.803087
426.367875	0.9266	0.825855
426.374585	0.941685	0.8474
426.381295	0.956327	0.868493
426.388004	0.966732	0.889327
426.394714	0.97237	0.90675
426.401424	0.976566	0.922637
426.408134	0.983232	0.940127
426.414843	0.990408	0.957756
426.421553	0.99463	0.976461
426.428263	0.995952	0.99482
426.434972	0.997656	1.01302
426.441682	1.002948	1.03093
426.448392	1.010389	1.045548
426.455101	1.013099	1.056764
426.461811	1.009379	1.066018
426.468521	1.003657	1.072723
426.475231	0.998095	1.080341
426.48194	0.997401	1.088707
426.48865	0.997889	1.0994
426.49536	0.998984	1.1115
426.502069	0.999865	1.123528
426.508779	1.000877	1.134696
426.515489	1.009592	1.140667
426.522198	1.021812	1.143597
426.528908	1.037403	1.144962
426.535618	1.052278	1.145787
426.542328	1.060798	1.147169
426.549037	1.060034	1.15019
426.555747	1.056747	1.154735
426.562457	1.055103	1.157903
426.569166	1.054026	1.160628
426.575876	1.054399	1.158693
426.582586	1.048698	1.156022
426.589295	1.037338	1.15198
426.596005	1.019407	1.148777
426.602715	1.000236	1.144399
426.609425	0.982619	1.137315
426.616134	0.971737	1.128246
426.622844	0.966156	1.117561
426.629554	0.963293	1.103669
426.636263	0.959213	1.089043
426.642973	0.95218	1.072323
426.649683	0.941272	1.052287
426.656392	0.92634	1.032012
426.663102	0.910231	1.012114
426.669812	0.894693	0.991208
426.676522	0.875442	0.968524
426.683231	0.854743	0.943537
426.689941	0.834475	0.917182
426.696651	0.818169	0.88887
426.70336	0.804267	0.857006
426.71007	0.787524	0.825359
426.71678	0.763094	0.791221
426.723489	0.732823	0.755282
426.730199	0.696745	0.716559
426.736909	0.65463	0.676617
426.743619	0.610365	0.637724
426.750328	0.565667	0.598712
426.757038	0.521474	0.560048
426.763748	0.483157	0.52438
426.770457	0.44886	0.48919
426.777167	0.415685	0.452432
426.783877	0.383464	0.414561
426.790586	0.354824	0.372706
426.797296	0.331569	0.329878
426.804006	0.311913	0.28876
426.810716	0.292435	0.247944
426.817425	0.274674	0.212503
426.824135	0.259248	0.179399
426.830845	0.242496	0.147089
426.837554	0.222141	0.115098
426.844264	0.194095	0.083648
426.850974	0.17005	0.050701
426.857683	0.15167	0.0186
426.864393	0.133016	-0.014609
426.871103	0.109358	-0.045126
426.877813	0.078117	-0.075003
426.884522	0.046545	-0.100301
426.891232	0.024724	-0.124136
426.897942	0.01107	-0.146531
426.904651	0.004101	-0.164812
426.911361	0.002232	-0.181787
426.918071	-0.00231	-0.194703
426.92478	-0.010764	-0.206646
426.93149	-0.021079	-0.217676
426.9382	-0.030268	-0.225594
426.94491	-0.037471	-0.230843
426.951619	-0.037345	-0.233445
426.958329	-0.033572	-0.232356
426.965039	-0.025431	-0.229562
426.971748	-0.013925	-0.225284
426.978458	0.001187	-0.223058
426.985168	0.018549	-0.219114
426.991877	0.038479	-0.211554
426.998587	0.053928	-0.201639
427.005297	0.064562	-0.188059
427.012007	0.072268	-0.170666
427.018716	0.079618	-0.153865
427.025426	0.087834	-0.140152
427.032136	0.09787	-0.124938
427.038845	0.107494	-0.111031
427.045555	0.11669	-0.094841
427.052265	0.124751	-0.075424
427.058974	0.130266	-0.05578
427.065684	0.132421	-0.035692
427.072394	0.133915	-0.014988
427.079104	0.141106	0.004308
427.085813	0.155297	0.023526
427.092523	0.175083	0.041598
427.099233	0.201768	0.059882
427.105942	0.22712	0.076271
427.112652	0.249424	0.094754
427.119362	0.270949	0.113733
427.126071	0.287273	0.136036
427.132781	0.294254	0.160197
427.139491	0.295285	0.184733
427.146201	0.296658	0.207374
427.15291	0.303108	0.228698
427.15962	0.317613	0.250139
427.16633	0.338445	0.270811
427.173039	0.36028	0.29092
427.179749	0.380778	0.312827
427.186459	0.403542	0.33527
427.193168	0.41956	0.358318
427.199878	0.430745	0.382972
427.206588	0.43696	0.40839
427.213298	0.447157	0.433127
427.220007	0.461447	0.458952
427.226717	0.480308	0.482425
427.233427	0.496515	0.504333
427.240136	0.508418	0.528772
427.246846	0.519979	0.55253
427.253556	0.534424	0.577185
427.260265	0.553478	0.601677
427.266975	0.575101	0.624757
427.273685	0.600935	0.648894
427.280395	0.630799	0.673797
427.287104	0.664663	0.698009
427.293814	0.699132	0.722333
427.300524	0.730409	0.748072
427.307233	0.762481	0.77508
427.313943	0.791852	0.803466
427.320653	0.81463	0.833043
427.327362	0.828937	0.863693
427.334072	0.839902	0.894237
427.340782	0.851702	0.922902
427.347492	0.87092	0.950787
427.354201	0.896991	0.976763
427.360911	0.920093	1.002075
427.367621	0.941986	1.026975
427.37433	0.961551	1.051211
427.38104	0.981065	1.072438
427.38775	1.000554	1.093525
427.394459	1.019216	1.112206
427.401169	1.035879	1.128187
427.407879	1.050574	1.140404
427.414589	1.065411	1.150972
427.421298	1.077933	1.156733
427.428008	1.090115	1.162367
427.434718	1.100542	1.165489
427.441427	1.110827	1.165564
427.448137	1.119499	1.165293
427.454847	1.121846	1.161261
427.461556	1.11973	1.15511
427.468266	1.114718	1.147709
427.474976	1.111791	1.139398
427.481686	1.110849	1.128738
427.488395	1.107938	1.117654
427.495105	1.098641	1.103733
427.501815	1.084781	1.086496
427.508524	1.066405	1.068828
427.515234	1.044912	1.051455
427.521944	1.017528	1.034415
427.528653	0.988172	1.01833
427.535363	0.959941	1.002674
427.542073	0.94099	0.986497
427.548783	0.931528	0.96895
427.555492	0.929105	0.949199
427.562202	0.929633	0.92666
427.568912	0.92704	0.902051
427.575621	0.926547	0.877234
427.582331	0.922259	0.854034
427.589041	0.912165	0.831731
427.59575	0.893578	0.812441
427.60246	0.868262	0.79327
427.60917	0.839109	0.773559
427.61588	0.81325	0.752561
427.622589	0.786453	0.729197
427.629299	0.758307	0.704488
427.636009	0.732294	0.680321
427.642718	0.710471	0.65592
427.649428	0.691291	0.634125
427.656138	0.670225	0.61477
427.662847	0.646423	0.594882
427.669557	0.623106	0.574503
427.676267	0.606451	0.553008
427.682977	0.595074	0.531937
427.689686	0.588051	0.511015
427.696396	0.58067	0.490904
427.703106	0.567681	0.474064
427.709815	0.547929	0.458453
427.716525	0.525417	0.445053
427.723235	0.505111	0.432084
427.729944	0.484408	0.420732
427.736654	0.469337	0.408822
427.743364	0.463607	0.397513
427.750074	0.461269	0.38413
427.756783	0.459983	0.367667
427.763493	0.451241	0.352188
427.770203	0.437897	0.336594
427.776912	0.421473	0.323049
427.783622	0.403431	0.311566
427.790332	0.381587	0.299039
427.797041	0.352854	0.285229
427.803751	0.323866	0.270699
427.810461	0.29886	0.252518
427.817171	0.279361	0.233214
427.82388	0.267155	0.216496
427.83059	0.256033	0.200035
427.8373	0.244295	0.185774
427.844009	0.23459	0.17398
427.850719	0.226225	0.164345
427.857429	0.218171	0.155798
427.864138	0.210053	0.147757
427.870848	0.202864	0.137698
427.877558	0.19628	0.125686
427.884268	0.190079	0.111476
427.890977	0.179842	0.097963
427.897687	0.165113	0.08836
427.904397	0.145547	0.080592
427.911106	0.126346	0.074925
427.917816	0.109306	0.071448
427.924526	0.097046	0.070753
427.931235	0.09308	0.071742
427.937945	0.095414	0.072989
427.944655	0.098713	0.073105
427.951365	0.101716	0.072414
427.958074	0.106417	0.071717
427.964784	0.110894	0.073831
427.971494	0.116008	0.074699
427.978203	0.117497	0.078856
427.984913	0.114871	0.085872
427.991623	0.107459	0.094668
427.998332	0.101155	0.101132
428.005042	0.097983	0.1087
428.011752	0.103738	0.114645
428.018462	0.110861	0.121108
428.025171	0.120456	0.127556
428.031881	0.132692	0.135282
428.038591	0.147951	0.144213
428.0453	0.165785	0.155369
428.05201	0.187198	0.166026
428.05872	0.209093	0.177525
428.065429	0.230339	0.190429
428.072139	0.252292	0.204164
428.078849	0.272371	0.217209
428.085559	0.285338	0.230251
428.092268	0.294366	0.24419
428.098978	0.303575	0.259652
428.105688	0.316292	0.27605
428.112397	0.330817	0.296103
428.119107	0.347126	0.317765
428.125817	0.367409	0.339568
428.132526	0.39573	0.359998
428.139236	0.427179	0.381751
428.145946	0.459681	0.400155
428.152656	0.486032	0.41626
428.159365	0.504472	0.431417
428.166075	0.520338	0.445832
428.172785	0.531921	0.459369
428.179494	0.540098	0.474774
428.186204	0.549709	0.488762
428.192914	0.56354	0.501295
428.199623	0.57923	0.51319
428.206333	0.595932	0.522971
428.213043	0.612288	0.530767
428.219753	0.63008	0.5369
428.226462	0.647828	0.543125
428.233172	0.665616	0.549492
428.239882	0.680689	0.556943
428.246591	0.691055	0.564913
428.253301	0.698979	0.575102
428.260011	0.706331	0.584558
428.26672	0.713813	0.591917
428.27343	0.720124	0.600196
428.28014	0.720088	0.606258
428.28685	0.716934	0.612486
428.293559	0.713316	0.619958
428.300269	0.713252	0.630248
428.306979	0.717907	0.640632
428.313688	0.728752	0.654267
428.320398	0.745581	0.669802
428.327108	0.765113	0.685701
428.333817	0.786897	0.7023
428.340527	0.805377	0.715726
428.347237	0.820283	0.727989
428.353947	0.835348	0.737733
428.360656	0.848579	0.747637
428.367366	0.860032	0.760213
428.374076	0.863796	0.773044
428.380785	0.862497	0.787116
428.387495	0.858747	0.801631
428.394205	0.85713	0.816806
428.400914	0.859205	0.83072
428.407624	0.860355	0.844
428.414334	0.865318	0.851906
428.421044	0.872511	0.859371
428.427753	0.884104	0.866286
428.434463	0.896268	0.873374
428.441173	0.906198	0.881639
428.447882	0.91004	0.891088
428.454592	0.914404	0.901997
428.461302	0.920448	0.913801
428.468011	0.925354	0.92322
428.474721	0.924163	0.931178
428.481431	0.920852	0.940651
428.488141	0.918653	0.946927
428.49485	0.920202	0.953763
428.50156	0.924172	0.961957
428.50827	0.93106	0.96917
428.514979	0.940536	0.975365
428.521689	0.951228	0.980361
428.528399	0.962272	0.983144
428.535108	0.966063	0.982743
428.541818	0.960867	0.980004
428.548528	0.949216	0.978601
428.555238	0.935296	0.975726
428.561947	0.920643	0.97105
428.568657	0.905979	0.965418
428.575367	0.890615	0.958466
428.582076	0.871433	0.946722
428.588786	0.854322	0.932019
428.595496	0.841038	0.91592
428.602205	0.83263	0.899336
428.608915	0.824146	0.881816
428.615625	0.813054	0.863605
428.622335	0.801428	0.843861
428.629044	0.790661	0.827206
428.635754	0.781212	0.808718
428.642464	0.765725	0.78938
428.649173	0.748071	0.769227
428.655883	0.725741	0.749845
428.662593	0.700437	0.729124
428.669302	0.671916	0.707141
428.676012	0.643886	0.685751
428.682722	0.615866	0.665065
428.689432	0.593927	0.642396
428.696141	0.579152	0.621554
428.702851	0.568811	0.600389
428.709561	0.556528	0.580859
428.71627	0.544028	0.561764
428.72298	0.530421	0.542462
428.72969	0.517685	0.521607
428.736399	0.502916	0.500642
428.743109	0.485097	0.477912
428.749819	0.46423	0.45711
428.756529	0.440257	0.435685
428.763238	0.41904	0.41558
428.769948	0.397347	0.396569
428.776658	0.376423	0.379438
428.783367	0.3565	0.362522
428.790077	0.340533	0.343383
428.796787	0.326219	0.32479
428.803496	0.313244	0.302742
428.810206	0.297747	0.278858
428.816916	0.282974	0.256029
428.823626	0.276019	0.232866
428.830335	0.272943	0.213587
428.837045	0.268499	0.198268
428.843755	0.259695	0.18329
428.850464	0.245751	0.170426
428.857174	0.232145	0.156756
428.863884	0.219622	0.141615
428.870593	0.208102	0.124935
428.877303	0.198171	0.109011
428.884013	0.19026	0.09391
428.890723	0.186631	0.080842
428.897432	0.188426	0.072502
428.904142	0.189707	0.067446
428.910852	0.19224	0.064315
428.917561	0.192793	0.059998
428.924271	0.192946	0.055225
428.930981	0.190393	0.047378
428.93769	0.183909	0.037209
428.9444	0.172025	0.026594
428.95111	0.159423	0.01526
428.95782	0.152042	0.00895
428.964529	0.151161	0.00501
428.971239	0.153594	0.003028
428.977949	0.158417	0.003154
428.984658	0.161104	0.00094
428.991368	0.165345	-0.002462
428.998078	0.17301	-0.004393
429.004787	0.182363	-0.004794
429.011497	0.187906	-0.004527
429.018207	0.193207	-0.001696
429.024917	0.197904	0.003684
429.031626	0.20136	0.013456
429.038336	0.203016	0.026606
429.045046	0.201437	0.041956
429.051755	0.200544	0.057364
429.058465	0.203991	0.073482
429.065175	0.211527	0.088108
429.071884	0.218861	0.101313
429.078594	0.228737	0.115825
429.085304	0.24559	0.130347
429.092014	0.271739	0.150509
429.098723	0.301167	0.173124
429.105433	0.324191	0.198029
429.112143	0.341802	0.225514
429.118852	0.356182	0.252147
429.125562	0.369053	0.277299
429.132272	0.382613	0.301162
429.138981	0.396705	0.324343
429.145691	0.414106	0.348252
429.152401	0.434621	0.374614
429.159111	0.458254	0.402825
429.16582	0.481979	0.433014
429.17253	0.504053	0.462278
429.17924	0.521444	0.488144
429.185949	0.540983	0.5128
429.192659	0.562214	0.536391
429.199369	0.583111	0.557631
429.206078	0.600137	0.580217
429.212788	0.61513	0.603641
429.219498	0.632852	0.629103
429.226208	0.655417	0.655145
429.232917	0.681846	0.683085
429.239627	0.705725	0.709779
429.246337	0.722485	0.735217
429.253046	0.739241	0.759099
429.259756	0.757024	0.780637
429.266466	0.780467	0.800894
429.273175	0.805823	0.822286
429.279885	0.833009	0.844135
429.286595	0.861085	0.867925
429.293305	0.891037	0.892886
429.300014	0.918054	0.917675
429.306724	0.937125	0.939177
429.313434	0.951868	0.956213
429.320143	0.960116	0.970438
429.326853	0.970915	0.983297
429.333563	0.975323	0.994468
429.340272	0.978812	1.003575
429.346982	0.977597	1.01335
429.353692	0.979187	1.022056
429.360402	0.985319	1.031333
429.367111	0.996705	1.037558
429.373821	1.006201	1.042217
429.380531	1.010548	1.044219
429.38724	1.01212	1.043058
429.39395	1.012194	1.040382
429.40066	1.013669	1.037371
429.407369	1.012363	1.034492
429.414079	1.012597	1.033373
429.420789	1.00992	1.031885
429.427499	1.006031	1.029078
429.434208	0.998184	1.024758
429.440918	0.987962	1.01676
429.447628	0.97932	1.01005
429.454337	0.978536	1.003079
429.461047	0.980103	1.000006
429.467757	0.984839	0.996617
429.474466	0.983273	0.993389
429.481176	0.976372	0.987719
429.487886	0.968199	0.981177
429.494596	0.957002	0.971288
429.501305	0.944049	0.958751
429.508015	0.92507	0.948021
429.514725	0.901575	0.938735
429.521434	0.880902	0.929262
429.528144	0.863232	0.918629
429.534854	0.849797	0.903604
429.541563	0.837867	0.886905
429.548273	0.82681	0.867804
429.554983	0.817201	0.847759
429.561693	0.809363	0.829091
429.568402	0.798979	0.811356
429.575112	0.785707	0.793192
429.581822	0.770515	0.773159
429.588531	0.754657	0.7509
429.595241	0.739814	0.728591
429.601951	0.724027	0.703301
429.60866	0.706527	0.675953
429.61537	0.68733	0.651037
429.62208	0.665762	0.625481
429.62879	0.648176	0.603617
429.635499	0.633515	0.583687
429.642209	0.617674	0.56393
429.648919	0.599326	0.544894
429.655628	0.579097	0.525938
429.662338	0.560046	0.502632
429.669048	0.54319	0.477789
429.675757	0.526528	0.452166
429.682467	0.509979	0.42661
429.689177	0.493284	0.403674
429.695887	0.475266	0.38316
429.702596	0.457496	0.3641
429.709306	0.439456	0.346368
429.716016	0.421865	0.32736
429.722725	0.403965	0.307697
429.729435	0.38888	0.28531
429.736145	0.373829	0.263097
429.742854	0.363913	0.240134
429.749564	0.355199	0.218535
429.756274	0.348569	0.198684
429.762984	0.341384	0.182083
429.769693	0.329578	0.166993
429.776403	0.311991	0.152106
429.783113	0.289737	0.136299
429.789822	0.266573	0.119203
429.796532	0.245714	0.102057
429.803242	0.228101	0.086074
429.809951	0.212445	0.069888
429.816661	0.197233	0.057409
429.823371	0.18133	0.050748
429.830081	0.166699	0.046369
429.83679	0.152724	0.045863
429.8435	0.14293	0.045365
429.85021	0.137414	0.044713
429.856919	0.135717	0.043451
429.863629	0.138284	0.042405
429.870339	0.141525	0.04539
429.877048	0.143189	0.051116
429.883758	0.142456	0.058244
429.890468	0.142936	0.069147
429.897178	0.145288	0.079903
429.903887	0.149737	0.089269
429.910597	0.155612	0.098122
429.917307	0.161004	0.105946
429.924016	0.166798	0.114657
429.930726	0.173967	0.127093
429.937436	0.18409	0.141788
429.944145	0.195531	0.158477
429.950855	0.205847	0.176089
429.957565	0.214906	0.192386
429.964275	0.222075	0.203981
429.970984	0.226702	0.212916
429.977694	0.227793	0.220879
429.984404	0.229134	0.230152
429.991113	0.230994	0.241111
