416.0130  85.68362
416.1090  85.68780
416.2590  85.69688
416.3620  85.69400
416.5120  85.67791
416.6620  85.67938
416.7570  85.67837
416.8600  85.68181
417.0120  85.68992
417.1610  85.69150
417.2580  85.68580
417.3590  85.68492
417.5110  85.68367
417.6120  85.67643
417.7620  85.68130
417.8580  85.68724
418.0110  85.68597
418.1130  85.68876
418.2570  85.69258
418.3590  85.68652
418.5110  85.67988
418.6120  85.67906
418.7620  85.67703
418.8580  85.67983
419.0080  85.69151
419.1580  85.69160
419.2610  85.69077
419.3620  85.68520
419.5120  85.67856
419.6620  85.67709
419.7570  85.67967
419.8610  85.68485
420.0120  85.69105
420.1600  85.69068
420.2570  85.68970
420.4070  85.68388
420.5100  85.68000
420.6110  85.67840
420.7600  85.67860
420.9110  85.68388
421.0130  85.69035
421.1570  85.69288
421.2590  85.69016
421.3600  85.68486
421.5130  85.67919
421.6630  85.67619
421.7600  85.68023
421.8640  85.68423
422.0140  85.69073
422.1580  85.69128
422.2610  85.68904
422.3630  85.68323
422.5130  85.67901
422.6590  85.67898
422.7610  85.67958
422.8610  85.68421
423.0140  85.69127
423.1100  85.69161
423.2590  85.69044
423.3620  85.68640
423.5120  85.67698
423.6130  85.67581
423.7630  85.68390
423.8590  85.68513
424.0100  85.69106
424.1100  85.69291
424.2610  85.68663
424.3630  85.68140
424.5130  85.67899
424.6630  85.67797
424.7640  85.68174
424.8610  85.68672
425.0120  85.69097
425.1130  85.69105
425.2630  85.68923
425.3640  85.68390
425.5090  85.67804
425.6600  85.67893
425.7620  85.68073
425.8630  85.68914
426.0130  85.69198
426.1100  85.69130
426.2620  85.68516
426.3640  85.68117
426.5080  85.67830
426.6590  85.67954
426.7600  85.68450
426.8640  85.68940
427.0150  85.69095
427.1590  85.68910
427.2610  85.68477
427.3610  85.68203
427.5120  85.67871
427.6620  85.67956
427.7590  85.68415
427.8610  85.68787
428.0130  85.69098
428.1130  85.69006
428.2590  85.68489
428.3600  85.68021
428.5100  85.67864
428.6600  85.68239
428.7620  85.68578
428.9130  85.69071
429.0150  85.69039
429.1110  85.68881
429.2610  85.68389
429.3630  85.67963
429.5090  85.67965
429.6590  85.68362
429.7620  85.68422
429.8630  85.68793
430.0140  85.69042